# L=256
# Trotter decomposition for beta: order=4 and bstep=0.100000
# Trotter decomposition for time: order=4 and tstep=0.100000

# t ; Re[Cij(t)] ; Im[Cij(t)] ; Re[Szi(t)] ; Im[Szi(t)]
0 0.25 0 -5.1137253829e-07 0
0.1 0.247745070389 -0.0287495244286 -5.08736744994e-07 -5.40024500843e-17
0.2 0.241056254912 -0.0567128118761 -5.00978773274e-07 -5.13542991502e-17
0.3 0.230158013226 -0.0831348104154 -4.88531731856e-07 -5.64872537247e-17
0.4 0.215413137536 -0.107321248729 -4.72081567936e-07 -3.69969020579e-17
0.5 0.197306460642 -0.128665152697 -4.5251267003e-07 -1.12921995309e-17
0.6 0.176423338329 -0.14666898056 -4.30837868832e-07 2.97250639009e-18
0.7 0.153424093771 -0.160961340611 -4.0812547808e-07 2.47132769028e-17
0.8 0.129015812658 -0.17130758017 -3.8541634769e-07 6.40827567891e-17
0.9 0.103922988789 -0.177613895201 -3.63645273698e-07 2.6017454523e-17
1 0.0788585367368 -0.179924981493 -3.4356886321e-07 -5.87626028905e-17
1.1 0.0544966127344 -0.178415607019 -3.25709261178e-07 -1.74478426189e-17
1.2 0.0314485244857 -0.173376806917 -3.10314391719e-07 -2.1065280558e-17
1.3 0.0102427792143 -0.165197667837 -2.97346332495e-07 -2.19458835383e-18
1.4 -0.00868996355692 -0.154343863342 -2.86481226945e-07 2.41639947006e-17
1.5 -0.025026583763 -0.141334216936 -2.77141705742e-07 1.80146199303e-17
1.6 -0.0385557113811 -0.126716599658 -2.68535576166e-07 4.26417180277e-17
1.7 -0.0491766405346 -0.111044418923 -2.59720648037e-07 5.38436401287e-17
1.8 -0.0568934167752 -0.0948548352178 -2.49676140279e-07 -2.69399383305e-17
1.9 -0.0618047957124 -0.0786496578335 -2.37375640977e-07 1.79483963185e-17
2 -0.0640909478946 -0.0628796457303 -2.21869628086e-07 -5.29949509144e-17
2.1 -0.0639978924275 -0.0479326883634 -2.02353431791e-07 -6.79072651693e-17
2.2 -0.0618206784968 -0.03412607434 -1.78228907256e-07 1.87555483055e-17
2.3 -0.0578863089151 -0.0217028129654 -1.49149772739e-07 -3.89424756496e-17
2.4 -0.0525373135719 -0.0108317387539 -1.15051995277e-07 -5.5314818579e-17
2.5 -0.0461167504562 -0.00161094551605 -7.61653224319e-08 -1.98923535991e-17
2.6 -0.0389552377202 0.0059260525002 -3.30039754172e-08 -7.96836911805e-17
2.7 -0.031360436442 0.0118021153259 1.36594675538e-08 1.31662697539e-17
2.8 -0.0236092050398 0.0160869604639 6.28386067943e-08 3.38113167919e-17
2.9 -0.0159424563028 0.0188870444904 1.13388307989e-07 -2.18996377263e-17
3 -0.00856258027559 0.0203355026874 1.6406970938e-07 2.59876954326e-17
3.1 -0.00163314807957 0.0205827068078 2.13618373446e-07 2.95177884395e-17
3.2 0.00471948023862 0.01978788079 2.60813710487e-07 4.18070650733e-17
3.3 0.0104031031553 0.0181120890367 3.045428239e-07 4.76000003697e-17
3.4 0.0153556679315 0.0157127486046 3.4385727136e-07 1.59266173978e-17
3.5 0.0195407558729 0.0127397108759 3.78013528702e-07 5.77606388955e-17
3.6 0.0229430160352 0.00933280728337 4.0649833287e-07 5.06920345703e-17
3.7 0.0255638783625 0.00562068944017 4.29038374899e-07 -4.43060853295e-17
3.8 0.0274178418972 0.00172068556601 4.4559343475e-07 1.21531843034e-17
3.9 0.0285294863967 -0.00226059938953 4.56330978233e-07 -1.21811019633e-17
4 0.0289312966348 -0.00622627499095 4.61593062702e-07 5.8727096096e-17
4.1 0.0286622740899 -0.0100880113637 4.61852855972e-07 -4.56031160349e-17
4.2 0.0277672361336 -0.0137650213181 4.57664937051e-07 1.20097470774e-17
4.3 0.0262966430304 -0.0171833475356 4.49618099927e-07 4.00107107829e-17
4.4 0.0243067580707 -0.0202755969422 4.38288280785e-07 -1.1688744562e-17
4.5 0.0218599228158 -0.0229811641712 4.24204428179e-07 -6.50767621485e-17
4.6 0.0190247413342 -0.0252469190869 4.07819699856e-07 5.49676838777e-17
4.7 0.0158759883161 -0.0270282902157 3.89498887166e-07 -7.20849565703e-17
4.8 0.0124941259037 -0.0282906027456 3.69517602997e-07 1.2367421448e-17
4.9 0.00896431200323 -0.0290104927656 3.4807166057e-07 -6.16090633574e-18
5 0.00537489617053 -0.029177236977 3.25295756796e-07 -8.2442255023e-17
5.1 0.00181543843148 -0.028793801842 3.01284361438e-07 -1.52416045091e-17
5.2 -0.00162566498574 -0.0278774704967 2.76118917308e-07 1.25840812032e-17
5.3 -0.00486381073671 -0.0264599002337 2.49890696277e-07 -2.67446877176e-17
5.4 -0.00782093617823 -0.0245866020595 2.22718133031e-07 -2.6922315245e-17
5.5 -0.0104281359533 -0.0223157040834 1.94758501866e-07 3.64009787606e-17
5.6 -0.0126280765879 -0.0197161536878 1.66208738297e-07 1.56607759594e-17
5.7 -0.0143769516333 -0.0168653469672 1.37297631084e-07 -7.58066309563e-17
5.8 -0.0156458920435 -0.01384635486 1.0827230716e-07 1.29623899824e-17
5.9 -0.016421737035 -0.010744871128 7.93790832307e-08 -7.26412638944e-17
6 -0.0167071038482 -0.0076460742478 5.08449525684e-08 -5.20285460042e-17
6.1 -0.0165197672594 -0.00463156223294 2.28591869925e-08 -8.23027071229e-18
6.2 -0.0158913841143 -0.0017765323782 -4.438109519e-09 -1.20261821422e-17
6.3 -0.0148656830949 0.000852639130553 -3.09624126333e-08 -2.52102940594e-17
6.4 -0.0134961820907 0.0032003178171 -5.66821975559e-08 -1.18213400794e-17
6.5 -0.0118436466511 0.00522295086469 -8.16091235414e-08 2.80024025352e-17
6.6 -0.00997338717981 0.00688978906499 -1.05778052185e-07 2.56143529528e-17
6.7 -0.00795258439984 0.00818299334627 -1.29223811655e-07 6.17979937533e-17
6.8 -0.00584775959954 0.00909718316656 -1.51954717368e-07 -3.30514957243e-17
6.9 -0.00372252548908 0.00963849172519 -1.73926090235e-07 3.92214170864e-17
7 -0.00163569237039 0.00982323326616 -1.95013985711e-07 3.60690583098e-17
7.1 0.000360192265769 0.00967629895615 -2.14998547216e-07 -7.69357658165e-17
7.2 0.00221985267361 0.00922940505382 -2.33552663444e-07 5.87608279306e-17
7.3 0.00390587130712 0.0085192927794 -2.50244378296e-07 3.68655365617e-17
7.4 0.00538885584966 0.00758601566407 -2.6454345731e-07 3.47050462175e-17
7.5 0.00664727604931 0.00647136362732 -2.7584223418e-07 6.59078490128e-17
7.6 0.00766701696803 0.00521749453913 -2.83484781701e-07 7.97289732077e-18
7.7 0.008440758303 0.0038658273011 -2.86802004462e-07 -1.91342663163e-17
7.8 0.00896723389703 0.00245617048953 -2.85152314403e-07 -1.20684558605e-16
7.9 0.00925046822321 0.00102610286901 -2.77964725574e-07 -2.91984694092e-17
8 0.0092990325365 -0.000389441292318 -2.6477871384e-07 5.00423408556e-19
8.1 0.00912537343393 -0.00175842165649 -2.45281672742e-07 1.38890869555e-17
8.2 0.00874523786023 -0.0030518278262 -2.193419112e-07 -2.11115553832e-17
8.3 0.00817719987948 -0.00424374965031 -1.87031781631e-07 -2.7077941492e-17
8.4 0.00744227896372 -0.0053114290225 -1.48642730097e-07 -6.03322589197e-17
8.5 0.0065636286683 -0.00623533535377 -1.04696064302e-07 1.01090130349e-17
8.6 0.00556625754189 -0.00699927381625 -5.59358761947e-08 -2.59823866828e-17
8.7 0.00447674945012 -0.00759054153408 -3.31697680807e-09 5.47910462416e-17
8.8 0.00332295298943 -0.00800012683876 5.20183564413e-08 -2.64020700574e-18
8.9 0.00213360064431 -0.00822292932037 1.08770510891e-07 -3.34066291317e-17
9 0.00093784909987 -0.00825796320607 1.65521966424e-07 2.07711935067e-17
9.1 -0.000235280871417 -0.00810852887035 2.20784852242e-07 -6.43066312016e-17
9.2 -0.00135754088754 -0.00778228857006 2.73047121312e-07 5.08498200464e-17
9.3 -0.0024021633944 -0.00729123157721 3.20829998238e-07 4.83263628581e-17
9.4 -0.00334460454883 -0.00665149472233 3.62746439471e-07 -2.50602498176e-17
9.5 -0.00416328090404 -0.00588301762088 3.97556830515e-07 -5.62553637748e-19
9.6 -0.00484026379536 -0.00500903775027 4.24220196503e-07 2.31624995482e-18
9.7 -0.0053618754028 -0.00405542153103 4.41949046002e-07 1.43475314486e-17
9.8 -0.00571914887178 -0.00304986252947 4.5024899497e-07 -1.55574928082e-17
9.9 -0.00590811956226 -0.00202097824562 4.4895386487e-07 -1.77590771337e-17
10 -0.00592992091869 -0.000997353680346 4.38250330943e-07 1.95694984437e-17
10.1 -0.00579067348499 -6.56716154881e-06 4.18688204348e-07 -1.64106601136e-17
10.2 -0.00550116677281 0.000925732854566 3.91175249715e-07 -5.37311535374e-17
10.3 -0.00507635029565 0.00177666665258 3.56955355729e-07 -6.30054048806e-17
10.4 -0.00453466273063 0.00252682429274 3.17569273155e-07 -3.10846318206e-17
10.5 -0.0038972370249 0.00316079972629 2.74798872743e-07 -1.20300692459e-16
10.6 -0.00318702121212 0.00366753488724 2.30597498465e-07 2.91241594483e-17
10.7 -0.00242787253411 0.00404046161046 1.87007514698e-07 -2.28156048443e-17
10.8 -0.00164366491317 0.00427744750717 1.46068166709e-07 1.706613527e-17
10.9 -0.000857461472509 0.00438055790783 1.09718642915e-07 3.91101529821e-17
11 -9.0784700637e-05 0.00435566356895 7.97018272287e-08 -3.41982000294e-17
11.1 0.000636982961379 0.0042119238741 5.74719582752e-08 3.60163670086e-17
11.2 0.00130904988591 0.00396118590624 4.41161680916e-08 3.6703610392e-17
11.3 0.00191151098688 0.00361734104776 4.02922152744e-08 -1.43447622966e-18
11.4 0.00243349112304 0.00319567643539 4.61875918999e-08 5.16301969694e-17
11.5 0.00286714901516 0.00271225831086 6.15029484426e-08 1.67827402585e-17
11.6 0.00320756513616 0.0021833716602 8.54642997097e-08 7.45188666517e-17
11.7 0.00345253397395 0.00162504289286 1.16862641468e-07 -7.16973847606e-17
11.8 0.00360229648841 0.00105264992499 1.54117415639e-07 9.05308286071e-18
11.9 0.00365923483827 0.000480627359482 1.95364291892e-07 5.89308044118e-17
12 0.00362755966481 -7.77400579021e-05 2.38557937755e-07 -5.98954006248e-18
12.1 0.00351300741871 -0.000610447654251 2.81585234082e-07 6.25173795389e-18
12.2 0.00332257038024 -0.00110683860881 3.22382460226e-07 4.03887039654e-17
12.3 0.00306425727857 -0.00155763098025 3.59046111876e-07 -5.14374302201e-17
12.4 0.00274689831344 -0.0019549180237 3.89936503014e-07 -7.46892091855e-17
12.5 0.00237998213436 -0.00229216245543 4.13759113508e-07 7.16056300725e-17
12.6 0.00197352041737 -0.00256419402247 4.29622358249e-07 -4.25239442648e-18
12.7 0.00153792762495 -0.00276721994687 4.37072851312e-07 -3.33380380174e-17
12.8 0.00108390177148 -0.00289884970045 4.36100678096e-07 3.97479514973e-17
12.9 0.000622296182258 -0.00295813383219 4.27120203369e-07 -2.53944860701e-17
13 0.000163968570053 -0.00294560496379 4.10927420972e-07 -6.4514493884e-17
13.1 -0.000280394038683 -0.00286331468963 3.88633242122e-07 -8.00443350574e-17
13.2 -0.000700484090023 -0.00271485159035 3.61583943106e-07 -1.49426567591e-17
13.3 -0.00108660311601 -0.00250532506491 3.31268366768e-07 -9.45248579834e-18
13.4 -0.0014299133326 -0.00224130832392 2.9922651864e-07 -4.90100579499e-17
13.5 -0.00172269395577 -0.00193072436864 2.66957113327e-07 1.28725163825e-17
13.6 -0.00195858852706 -0.0015826746945 2.35833792862e-07 3.95058182037e-18
13.7 -0.00213282631309 -0.0012072103462 2.07035593516e-07 -6.16535184297e-17
13.8 -0.00224240169759 -0.000815047412313 1.81491886268e-07 -2.51055688734e-17
13.9 -0.00228619501328 -0.000417240131531 1.59847123386e-07 -2.62924658309e-17
14 -0.00226502572691 -2.48247684443e-05 1.4244461969e-07 -2.28332778252e-17
14.1 -0.00218162587985 0.000351549362892 1.29328433833e-07 5.35178432546e-17
14.2 -0.00204053593445 0.000701978323433 1.20265648501e-07 -8.67572795687e-18
14.3 -0.00184792384161 0.00101763848121 1.1478180821e-07 5.26768385042e-17
14.4 -0.0016113335318 0.00129107168937 1.12211800483e-07 -1.44661360498e-17
14.5 -0.0013393806928 0.0015164109411 1.1175924121e-07 1.03203801624e-17
14.6 -0.00104140776511 0.00168953313349 1.12559240431e-07 -1.7097384744e-17
14.7 -0.000727118590335 0.00180813132901 1.13740997126e-07 6.78697574811e-17
14.8 -0.000406214125739 0.00187170636476 1.14488457276e-07 -5.9786033659e-17
14.9 -8.80465517309e-05 0.00188148099408 1.14091337626e-07 1.69655504538e-17
15 0.000218689064629 0.00184024490302 1.11986691161e-07 -4.8585011252e-17
15.1 0.000506214228125 0.00175214407437 1.07786053435e-07 6.55808970354e-17
15.2 0.000767864417207 0.00162242928966 1.01286473616e-07 9.76880442245e-17
15.3 0.000998220885109 0.00145718138225 9.24693199405e-08 2.48354734984e-17
15.4 0.00119317732949 0.00126302922102 8.14825329095e-08 -7.42735760473e-18
15.5 0.00134994113149 0.00104687825686 6.86110703122e-08 -3.50271697253e-17
15.6 0.00146698318603 0.000815661089317 5.42404048956e-08 -1.78421390544e-17
15.7 0.00154394114681 0.000576122806298 3.88140055039e-08 -2.50141368058e-17
15.8 0.00158149142572 0.000334646484332 2.27905146592e-08 1.69167875457e-17
15.9 0.0015812027833 9.71222183414e-05 6.60333726933e-09 -6.27672687805e-17
16 0.00154538272779 -0.000131141199534 -9.37500271105e-09 -6.20927459919e-18
16.1 0.0014769290578 -0.00034546578075 -2.48571563359e-08 -2.57385340126e-18
16.2 0.00137919437141 -0.000541822291969 -3.96538908608e-08 -5.5473724912e-17
16.3 0.00125586904221 -0.000716824555265 -5.36778987674e-08 8.30899279949e-18
16.4 0.00111088502958 -0.000867708912181 -6.69364968121e-08 7.11644615437e-17
16.5 0.000948341186296 -0.000992307412987 -7.9514672537e-08 -8.55219133115e-17
16.6 0.000772445535996 -0.00108902179195 -9.1552044734e-08 -6.64337344147e-17
16.7 0.000587471222259 -0.0011568040134 -1.03216223272e-07 -5.8993089558e-18
16.8 0.000397718176189 -0.00119514559254 -1.14676386941e-07 1.15299219437e-17
16.9 0.000207475713835 -0.00120407625975 -1.26078228158e-07 3.32817165201e-17
17 2.09794819456e-05 -0.00118417083059 -1.37526646066e-07 -4.56505156943e-17
17.1 -0.000157641454742 -0.00113655857956 -1.49074172797e-07 1.59052927614e-17
17.2 -0.000324430451136 -0.00106293127197 -1.60718763618e-07 1.13389643269e-17
17.3 -0.000475681984826 -0.000965542495346 -1.72409313845e-07 -3.55124108141e-18
17.4 -0.000608030904872 -0.000847193242553 -1.84057445797e-07 -7.28544183218e-17
17.5 -0.000718549456691 -0.000711197368515 -1.95553558545e-07 -3.19166382522e-18
17.6 -0.000804844736964 -0.00056132452674 -2.06786438943e-07 3.21999848542e-17
17.7 -0.000865150567572 -0.000401717749807 -2.17660291341e-07 2.01864128768e-17
17.8 -0.000898405348993 -0.000236787086461 -2.2810936124e-07 -2.16310206415e-17
17.9 -0.000904309886681 -7.10818713805e-05 -2.38108279813e-07 -7.60725059422e-18
18 -0.000883356930364 9.08527998914e-05 -2.4767284365e-07 -6.17288297974e-19
18.1 -0.000836830280109 0.000244628223273 -2.56856039425e-07 2.46461519405e-17
18.2 -0.000766768543768 0.000386165009439 -2.65735685504e-07 3.86124280449e-17
18.3 -0.000675896047815 0.000511837408221 -2.74397701041e-07 1.36594949373e-17
18.4 -0.000567520883359 0.000618600613428 -2.82914992339e-07 1.22213454632e-16
18.5 -0.000445407167462 0.000704093255145 -2.91327007655e-07 1.92996620613e-17
18.6 -0.000313626898556 0.000766709203103 -2.99618930187e-07 -4.23311978587e-17
18.7 -0.00017640056814 0.000805634237112 -3.07707357699e-07 1.75019932072e-17
18.8 -3.79348039332e-05 0.000820846309908 -3.15430277893e-07 -5.47844833547e-17
18.9 9.77331739441e-05 0.000813079913196 -3.22545459311e-07 -2.49393837934e-17
19 0.000226876033588 0.00078375794747 -3.2873671044e-07 -2.08201531929e-17
19.1 0.000346195159328 0.000734896714859 -3.336265044e-07 9.16328256202e-18
19.2 0.000452911759106 0.000668990110711 -3.36798113908e-07 2.49976299304e-17
19.3 0.000544827276169 0.00058888178772 -3.37820348479e-07 7.11600392584e-17
19.4 0.000620352481281 0.000497632813717 -3.3627527993e-07 8.77983605896e-18
19.5 0.000678506056374 0.00039839311261 -3.31788673593e-07 1.83355282855e-17
19.6 0.000718886090163 0.000294283716386 -3.24057046727e-07 -6.39156235469e-17
19.7 0.000741619798212 0.000188294867808 -3.12871991024e-07 2.32421404143e-17
19.8 0.000747296533249 8.32047919419e-05 -2.9813816881e-07 -8.78451808554e-17
19.9 0.000736891361232 -1.84800065913e-05 -2.79884292557e-07 -4.38211429413e-17
20 0.000711685321054 -0.000114562108194 -2.58267244442e-07 4.71294596258e-17
20.1 0.000673187828082 -0.000203170454793 -2.33566571094e-07 -6.60888093092e-17
20.2 0.000623066462287 -0.000282760322053 -2.06173309691e-07 6.96179601273e-18
20.3 0.00056308711426 -0.000352100429786 -1.76571424279e-07 4.78530126304e-18
20.4 0.000495066463426 -0.000410251534887 -1.45315009269e-07 7.11277518889e-18
20.5 0.000420836908685 -0.000456541338738 -1.13002930247e-07 4.72301827705e-17
20.6 0.000342222920199 -0.000490539953328 -8.02523863146e-08 -3.19874626991e-18
20.7 0.000261026172038 -0.000512038950092 -4.76746702226e-08 4.58543412284e-18
20.8 0.000179016722512 -0.000521036463898 -1.5852920966e-08 -1.88112232354e-17
20.9 9.79262581801e-05 -0.000517729015477 1.467533678e-08 3.62276993487e-17
21 1.9440509228e-05 -0.000502509723625 4.34292702285e-08 -2.04956812739e-17
21.1 -5.4812755527e-05 -0.000475971312735 6.99910425314e-08 3.97217930355e-17
21.2 -0.000123281595524 -0.000438911182533 9.40056720848e-08 -7.62001397708e-18
21.3 -0.000184514919999 -0.000392335694565 1.15174701256e-07 -1.91837907178e-17
21.4 -0.000237194570309 -0.000337460146191 1.33246800707e-07 2.28913171349e-17
21.5 -0.000280172823757 -0.000275701733242 1.48008494962e-07 -4.72464885596e-17
21.6 -0.000312513178551 -0.000208662405194 1.59271125452e-07 -1.51994437043e-17
21.7 -0.00033353100148 -0.000138100800194 1.66861284241e-07 -3.11465418083e-18
21.8 -0.00034283055063 -6.58921745998e-05 1.70612070247e-07 1.33986931342e-17
21.9 -0.000340334393461 6.02262355123e-06 1.70360586462e-07 2.83884979787e-17
22 -0.000326302073952 7.56970443913e-05 1.65948397915e-07 2.82558633422e-17
22.1 -0.000301335010224 0.000141245047654 1.57228139654e-07 5.26788956619e-17
22.2 -0.000266366014345 0.000200909298444 1.44076188871e-07 -1.62038802874e-17
22.3 -0.000222632627967 0.000253127692975 1.26409747427e-07 2.98511966219e-17
22.4 -0.00017163511338 0.000296593445438 1.04206841954e-07 4.61421881002e-17
22.5 -0.000115080678806 0.000330304999318 7.75276458461e-08 -4.52740496335e-17
22.6 -5.48170897563e-05 0.000353602217377 4.65342212095e-08 2.22357838383e-17
22.7 7.24073117948e-06 0.000366186585058 1.15065578103e-08 -7.51392572099e-19
22.8 6.91865979117e-05 0.000368123865254 -2.71468687372e-08 6.85458252184e-17
22.9 0.000129197100487 0.000359829491126 -6.88850718865e-08 5.64809906236e-17
23 0.000185599398255 0.000342037507671 -1.13039607208e-07 6.03618761553e-19
23.1 0.000236928874104 0.000315755688474 -1.58826773249e-07 2.03182479449e-17
23.2 0.000281973801758 0.000282209846581 -2.05368321816e-07 3.64046612973e-17
23.3 0.000319804965554 0.000242781315302 -2.51720241475e-07 -2.96777145943e-17
23.4 0.000349789467392 0.000198941583502 -2.9690680354e-07 -1.18284286675e-17
23.5 0.000371589085087 0.000152188430678 -3.39959911864e-07 3.42940722838e-17
23.6 0.000385144609258 0.000103987099436 -3.79959575794e-07 6.93533028561e-17
23.7 0.00039064848231 5.57196550367e-05 -4.16073078661e-07 -7.06182348912e-17
23.8 0.000388508811745 8.64473254376e-06 -4.4759139378e-07 -7.30643532579e-18
23.9 0.000379308095955 -3.61310581422e-05 -4.739606256e-07 -8.86506001483e-18
24 0.000363759991031 -7.76698882572e-05 -4.94803007344e-07 2.89482581819e-17
24.1 0.000342667446875 -0.000115208458396 -5.09930794513e-07 3.54822506742e-17
24.2 0.000316884796961 -0.000148154017576 -5.19350425149e-07 -2.09936090973e-18
24.3 0.00028728572046 -0.000176073202813 -5.23256763479e-07 -2.79908985858e-17
24.4 0.000254738492386 -0.000198675866588 -5.22017363387e-07 4.45488811611e-17
24.5 0.00022008867216 -0.000215796651344 -5.161481755e-07 -6.36342746216e-17
24.6 0.00018414868166 -0.000227376745106 -5.06283100914e-07 1.59983871791e-17
24.7 0.000147693438269 -0.000233447709314 -4.93137885164e-07 3.04564300036e-17
24.8 0.000111460058973 -0.000234118975336 -4.77471319052e-07 2.10714515598e-17
24.9 7.61500060466e-05 -0.000229569730844 -4.60046556017e-07 3.23304061994e-17
25 4.24313759167e-05 -0.000220045238414 -4.4159372953e-07 -8.57254903855e-17
25.1 1.09398396846e-05 -0.00020585699969 -4.22776810519e-07 1.59750735725e-17
25.2 -1.77234758695e-05 -0.000187385578955 -4.04167321577e-07 -1.68470511359e-17
25.3 -4.29978863875e-05 -0.000165084555264 -3.86224182469e-07 -1.8634837764e-17
25.4 -6.43731387299e-05 -0.000139483772949 -3.6928321587e-07 3.6387222091e-17
25.5 -8.14032310695e-05 -0.000111190216054 -3.53551868278e-07 3.60914429992e-17
25.6 -9.37230066159e-05 -8.08849007154e-05 -3.391104325e-07 9.89432417672e-19
25.7 -0.000101066143205 -4.93147120841e-05 -3.25919872978e-07 -2.2650602351e-17
25.8 -0.000103282717713 -1.72785311545e-05 -3.13837871127e-07 2.42559022157e-17
25.9 -0.000100354595 1.43923195974e-05 -3.02637232787e-07 3.65431092514e-17
