# L=256
# Trotter decomposition for beta: order=4 and bstep=0.100000
# Trotter decomposition for time: order=4 and tstep=0.100000

# t ; Re[Cij(t)] ; Im[Cij(t)] ; Re[Szi(t)] ; Im[Szi(t)]
0 0.25 0 -4.1110912765e-11 0
0.1 0.248563058805 -0.00678212058883 -7.87212027231e-11 -8.88176459588e-17
0.2 0.244292735823 -0.0133768522808 -1.86815668123e-10 3.18254357274e-17
0.3 0.237308984616 -0.019603854286 -3.51544227617e-10 -5.22347925222e-17
0.4 0.227806639213 -0.0252965582231 -5.51026297187e-10 7.75914891803e-18
0.5 0.216048030147 -0.03030826234 -7.57011858986e-10 6.79221041439e-17
0.6 0.202353130665 -0.0345173233354 -9.37102802051e-10 -1.47542615109e-17
0.7 0.187087684952 -0.0378312217206 -1.05727065748e-09 1.80231063462e-17
0.8 0.170649856068 -0.0401893362209 -1.08458881834e-09 -3.60815000851e-17
0.9 0.153455988446 -0.0415643299307 -9.89902626439e-10 -4.72589818004e-17
1 0.135926105917 -0.0419621217575 -7.50312495365e-10 -9.99960547085e-18
1.1 0.118469760557 -0.0414204869547 -3.51250071241e-10 -1.4177344251e-17
1.2 0.101472811621 -0.0400063962475 2.11990545735e-10 -8.86198444241e-17
1.3 0.0852856503104 -0.0378122606288 9.3336109849e-10 -4.27791668785e-17
1.4 0.0702132996317 -0.0349512953958 1.79589121606e-09 -5.28270125401e-17
1.5 0.0565077147125 -0.0315522502789 2.77226289041e-09 -1.85486722066e-18
1.6 0.0443624939515 -0.0277537713575 3.826053036e-09 -1.320465689e-17
1.7 0.0339100919413 -0.0236986645493 4.91361252596e-09 -3.82671379518e-17
1.8 0.0252215076555 -0.0195283203855 5.98643342482e-09 1.21439586368e-17
1.9 0.0183083120541 -0.01537753699 6.99382994911e-09 -4.92156912502e-17
2 0.0131267830874 -0.0113699446698 7.88579822083e-09 1.00144995172e-17
2.1 0.00958383724989 -0.00761419388388 8.61578799561e-09 1.69800045542e-18
2.2 0.00754438820111 -0.00420102136463 9.14335709057e-09 1.47659464587e-17
2.3 0.00683972603766 -0.00120125985451 9.43637489341e-09 5.61709158069e-17
2.4 0.00727649582762 0.00133519203912 9.47275331322e-09 -8.9352482015e-17
2.5 0.00864586008621 0.00337946925528 9.24161284755e-09 2.44678534761e-17
2.6 0.010732454863 0.00492297908605 8.74376910805e-09 -5.76564634862e-17
2.7 0.0133227903014 0.00597588336993 7.9915768507e-09 -2.67251590738e-17
2.8 0.0162128004051 0.00656495392331 7.00815798674e-09 1.07192819743e-17
2.9 0.0192143095034 0.00673094827122 5.82608669222e-09 4.84261539815e-17
3 0.0221602507291 0.00652566134667 4.48562239343e-09 -3.76279732055e-17
3.1 0.024908540863 0.00600880904347 3.03262190473e-09 3.30093835168e-17
3.2 0.027344582783 0.00524489242207 1.51628477401e-09 1.44073124448e-17
3.3 0.0293824283524 0.00430017783351 -1.31712560232e-11 -7.71836668421e-17
3.4 0.0309646888402 0.00323990969137 -1.50672984256e-09 1.21577725852e-16
3.5 0.0320613245084 0.0021258508716 -2.91858813006e-09 8.22413538151e-18
3.6 0.0326674794611 0.00101422105411 -4.20789632325e-09 1.47789019528e-16
3.7 0.0328005512637 -4.59206817834e-05 -5.34012960721e-09 -4.20709302978e-18
3.8 0.032496697059 -0.00101382749552 -6.28805580593e-09 1.37866325963e-17
3.9 0.0318069811531 -0.00185775165075 -7.03232707032e-09 -1.26473047995e-18
4 0.0307933611438 -0.00255518693077 -7.56167008221e-09 2.8427693221e-17
4.1 0.0295246960776 -0.00309270483961 -7.87271649406e-09 -3.02442632022e-17
4.2 0.0280729388569 -0.00346543488296 -7.9695426056e-09 -7.56284437948e-17
4.3 0.0265096496692 -0.00367624977188 -7.86296338624e-09 6.1132884612e-17
4.4 0.0249029389612 -0.00373472166642 -7.56962146826e-09 -2.65023672761e-17
4.5 0.0233149184819 -0.00365591808345 -7.11095484741e-09 -1.01813419774e-17
4.6 0.0217997091427 -0.00345910523136 -6.51210860503e-09 2.94876313433e-17
4.7 0.0204020259118 -0.00316642293154 -5.80081369515e-09 -8.16562567876e-17
4.8 0.0191563336629 -0.00280158942818 -5.00629422945e-09 5.68812976785e-18
4.9 0.01808654489 -0.00238868674496 -4.15822886103e-09 -5.69175594729e-17
5 0.0172062108453 -0.00195106846899 -3.28581276038e-09 4.40715308963e-20
5.1 0.0165191423327 -0.00151042222374 -2.41690945373e-09 1.18458432495e-16
5.2 0.0160203854342 -0.00108600936022 -1.57733595972e-09 -1.45717741303e-17
5.3 0.0156974706368 -0.000694094651652 -7.90245152581e-10 -3.5993769327e-17
5.4 0.0155318510185 -0.000347569641163 -7.56676504647e-11 1.07640182318e-16
5.5 0.01550044641 -5.57651216033e-05 5.49870833915e-10 -3.5410309385e-17
5.6 0.0155772143447 0.000175559687616 1.07358803973e-09 8.1892873546e-17
5.7 0.0157346758124 0.000344068773352 1.48658368557e-09 -9.1626069347e-17
5.8 0.0159453336881 0.000450565310494 1.78382542342e-09 -3.89740985802e-17
5.9 0.0161829319717 0.000498597983675 1.96403455312e-09 -2.36915066868e-17
6 0.01642351664 0.000493986234026 2.02944288315e-09 -6.47546356859e-17
6.1 0.0166462713884 0.000444293644097 1.98544278274e-09 7.91282836565e-17
6.2 0.0168341141984 0.000358278068011 1.8401724145e-09 3.33715509779e-17
6.3 0.0169740525054 0.000245345590998 1.60402172212e-09 -3.37541575598e-18
6.4 0.0170573062854 0.000115032559281 1.28913342192e-09 -1.26856411929e-17
6.5 0.0170792173761 -2.34632417735e-05 9.08895644299e-10 1.97605239806e-17
6.6 0.017038971904 -0.000161685668977 4.77439594138e-10 -3.46530262727e-17
6.7 0.0169391684894 -0.000292245052718 9.22006414001e-12 -3.12236230597e-17
6.8 0.0167852690544 -0.00040905722022 -4.81359577544e-10 -6.62721963789e-17
6.9 0.0165849711019 -0.000507493718504 -9.8021553719e-10 1.25963713982e-16
7 0.0163475402065 -0.000584444708538 -1.47379139346e-09 5.54701165184e-17
7.1 0.0160831399915 -0.000638300056278 -1.94919305419e-09 -8.6823526254e-17
7.2 0.0158021929429 -0.000668857526239 -2.39424782879e-09 -4.59974485594e-17
7.3 0.0155148011462 -0.000677169924977 -2.79753246529e-09 -4.06521211796e-17
7.4 0.0152302498311 -0.000665344748476 -3.14840129301e-09 -4.84029237798e-18
7.5 0.0149566104614 -0.00063631133188 -3.43701344276e-09 -2.36351860798e-17
7.6 0.0147004532084 -0.000593570659536 -3.65443376831e-09 -2.29863678011e-17
7.7 0.0144666721434 -0.000540942484224 -3.79273440548e-09 2.23590303105e-17
7.8 0.0142584202117 -0.000482323281621 -3.84521465008e-09 1.09538504826e-17
7.9 0.0140771455615 -0.000421466697917 -3.80665909913e-09 2.54838066997e-17
8 0.0139227162933 -0.000361795905911 -3.67363109089e-09 -7.4477989787e-17
8.1 0.0137936171877 -0.000306254569174 -3.44480777997e-09 1.01283616259e-16
8.2 0.0136871998287 -0.000257200634721 -3.12130710954e-09 -6.9378248715e-17
8.3 0.0135999664228 -0.000216344163478 -2.70698374421e-09 -3.16585017696e-18
8.4 0.0135278679383 -0.000184728069057 -2.2086604986e-09 -7.32591029346e-17
8.5 0.0134665982817 -0.000162748177601 -1.63624196915e-09 -5.31608984951e-17
8.6 0.0134118684672 -0.000150207217676 -1.00268961318e-09 -1.95827501891e-17
8.7 0.0133596476264 -0.000146395974853 -3.23831387323e-10 -1.6865971386e-17
8.8 0.013306360988 -0.000150193943739 3.81987107067e-10 -3.45369507011e-17
8.9 0.0132490384715 -0.000160181714143 1.09442836551e-09 -9.64462600786e-18
9 0.0131854112282 -0.000174757526682 1.79182513688e-09 -3.93082133717e-17
9.1 0.0131139563857 -0.000192250640125 2.45197481563e-09 -3.19438030221e-17
9.2 0.013033894009 -0.000211025065738 3.0529756369e-09 6.83516010748e-17
9.3 0.0129451411062 -0.000229569664088 3.57410329434e-09 -2.43545013901e-17
9.4 0.0128482314078 -0.000246569513357 3.99664936316e-09 2.96524343561e-17
9.5 0.0127442091765 -0.000260957525047 4.30468519478e-09 5.81135222293e-17
9.6 0.0126345066896 -0.000271945307562 4.48568547775e-09 5.49773081903e-17
9.7 0.012520814679 -0.000279034174362 4.53101001622e-09 1.07492931716e-17
9.8 0.0124049540952 -0.000282008008611 4.43620215904e-09 1.1843215599e-17
9.9 0.0122887564942 -0.000280910614365 4.20109556345e-09 -1.56147879724e-16
10 0.0121739588027 -0.00027601093189 3.82972683188e-09 6.48229760556e-17
10.1 0.0120621166576 -0.000267759911799 3.33008928331e-09 -2.06647480703e-18
10.2 0.011954538882 -0.000256742710112 2.71374232989e-09 -1.8362881337e-17
10.3 0.0118522439707 -0.000243629590829 1.99533522108e-09 -3.03380855298e-17
10.4 0.0117559380605 -0.000229128509525 1.19202674833e-09 9.18409595924e-18
10.5 0.0116660127017 -0.000213941861526 3.22930293707e-10 4.22207827574e-17
10.6 0.0115825598646 -0.00019872919388 -5.91486298359e-10 1.4396582948e-17
10.7 0.0115054013235 -0.00018407720181 -1.52997012002e-09 2.3248890886e-17
10.8 0.0114341288221 -0.000170478028305 -2.4709567367e-09 -1.17856888511e-16
10.9 0.0113681508187 -0.000158316138682 -3.39304707434e-09 9.51948137819e-18
11 0.0113067419457 -0.000147863138371 -4.27539628626e-09 1.18287307143e-17
11.1 0.011249092218 -0.000139279313413 -5.09804710205e-09 1.18491722544e-17
11.2 0.0111943537919 -0.000132620623061 -5.8422510539e-09 -8.18393517426e-17
11.3 0.0111416831848 -0.000127850023398 -6.49074984345e-09 6.74562487735e-17
11.4 0.0110902770488 -0.000124852039465 -7.02805947374e-09 4.93379517236e-17
11.5 0.0110394001946 -0.000123449003048 -7.44074351382e-09 6.93043715158e-18
11.6 0.0109884059945 -0.000123417580057 -7.71770291497e-09 2.70350524559e-17
11.7 0.0109367506327 -0.000124504848498 -7.85048692686e-09 9.55020526273e-18
11.8 0.0108840012944 -0.000126441828216 -7.83354457608e-09 -7.80182256111e-17
11.9 0.0108298461577 -0.000128960753778 -7.66452120547e-09 3.47808990348e-17
12 0.0107740897687 -0.000131800532889 -7.34447526992e-09 1.68190979631e-17
12.1 0.0107166527192 -0.000134718871082 -6.87802383963e-09 4.44638735955e-17
12.2 0.0106575639592 -0.000137499037762 -6.27342045436e-09 3.49639663394e-17
12.3 0.0105969502216 -0.000139955248144 -5.54247583865e-09 8.97863853768e-17
12.4 0.0105350228691 -0.000141935846312 -4.70039424526e-09 -8.72620576274e-17
12.5 0.010472063233 -0.000143324861844 -3.76542746639e-09 5.82221949832e-17
12.6 0.0104084072214 -0.000144042822101 -2.75836736506e-09 4.09190290501e-17
12.7 0.0103444296322 -0.000144047108506 -1.7019276617e-09 7.54962294217e-17
12.8 0.0102805283693 -0.000143331309601 -6.19965530507e-10 1.16354801556e-16
12.9 0.0102171083041 -0.000141923760733 4.63339631017e-10 -9.14466582557e-17
13 0.0101545654338 -0.000139884817566 1.52441783328e-09 -2.04518705413e-17
13.1 0.0100932720545 -0.000137302775903 2.54119673811e-09 -4.88710005339e-17
13.2 0.0100335630903 -0.000134288920048 3.49395106006e-09 -4.90516205213e-17
13.3 0.00997572270846 -0.000130972453695 4.36601944179e-09 -1.15305770091e-16
13.4 0.00991997090251 -0.000127495290622 5.14438980231e-09 5.38264295302e-17
13.5 0.00986645133522 -0.000124005768971 5.82005806103e-09 -6.95918366827e-18
13.6 0.00981522241704 -0.000120650787794 6.38817525209e-09 -4.91590374137e-17
13.7 0.00976625340098 -0.000117567452162 6.8479428676e-09 3.46374151403e-17
13.8 0.00971942644081 -0.000114875790086 7.20227596207e-09 -3.90855515737e-17
13.9 0.00967454454405 -0.000112673157125 7.45728044301e-09 3.60046317777e-17
14 0.00963134520764 -0.000111030202337 7.62152557375e-09 -3.16983737695e-18
14.1 0.00958951059488 -0.000109986554793 7.70522625918e-09 -3.97071743498e-17
14.2 0.00954868690967 -0.000109548095329 7.71936219395e-09 5.34014820264e-17
14.3 0.00950849982288 -0.000109682563386 7.67480643188e-09 5.13086128803e-17
14.4 0.00946857504076 -0.000110320079117 7.5815288003e-09 -4.97775443794e-17
14.5 0.00942856013533 -0.000111353095335 7.44793618888e-09 7.15976425146e-17
14.6 0.00938814718886 -0.000112640428371 7.28037503803e-09 2.41248198505e-17
14.7 0.00934709443145 -0.000114014938147 7.082861668e-09 8.00486677457e-17
14.8 0.00930524531733 -0.000115294042443 6.8570239273e-09 -4.7775852958e-17
14.9 0.00926254310865 -0.000116291533566 6.60227701567e-09 -2.18556164137e-17
15 0.00921903869989 -0.000116829720582 6.31618159645e-09 3.24126373846e-17
15.1 0.00917488993459 -0.000116751605214 5.99496487345e-09 -4.53770112494e-17
15.2 0.00913035187459 -0.000115932640844 5.63417326701e-09 2.95877461674e-17
15.3 0.00908575909455 -0.000114291112518 5.22937244572e-09 -7.50124757411e-17
15.4 0.00904150214029 -0.00011179556684 4.77685858764e-09 5.8720425673e-17
15.5 0.00899800071057 -0.000108468209925 4.27430855825e-09 -3.25377138685e-17
15.6 0.0089556755958 -0.000104384379209 3.72133809478e-09 7.22939888448e-17
15.7 0.00891492067279 -9.96685539271e-05 3.11992567143e-09 9.83554696338e-17
15.8 0.00887607417251 -9.44903429325e-05 2.47464691864e-09 9.08762552324e-18
15.9 0.00883939136059 -8.90547184016e-05 1.7927650775e-09 1.29930547806e-17
16 0.00880502185363 -8.35935169652e-05 1.08411621722e-09 2.52132167891e-17
16.1 0.00877299076806 -7.83532451745e-05 3.60850988885e-10 7.0290650344e-17
16.2 0.00874318735989 -7.35813952053e-05 -3.62972856343e-10 -4.21241370645e-17
16.3 0.00871536234496 -6.95118283621e-05 -1.07190572404e-09 2.412782641e-17
16.4 0.00868913282528 -6.63512717304e-05 -1.74971840458e-09 -5.32846982319e-17
16.5 0.00866399819087 -6.42639541419e-05 -2.38000195994e-09 6.84874966823e-17
16.6 0.00863936691369 -6.3362341584e-05 -2.94682450149e-09 -3.42833320494e-17
16.7 0.00861458896524 -6.36972074242e-05 -3.43532214755e-09 -2.22429004991e-18
16.8 0.00858899547622 -6.52513527584e-05 -3.83227011389e-09 -1.89849796773e-17
16.9 0.00856194080942 -6.79365665942e-05 -4.12655897447e-09 -6.16494698315e-17
17 0.00853284437419 -7.15940195026e-05 -4.30963624983e-09 -1.56812887506e-17
17.1 0.00850122970662 -7.59987249978e-05 -4.37582654699e-09 -6.63457731697e-17
17.2 0.00846675866686 -8.08688478369e-05 -4.32260741422e-09 2.9707795685e-17
17.3 0.0084292589263 -8.58800039026e-05 -4.15078119298e-09 1.56665452576e-17
17.4 0.00838874304442 -9.06836215014e-05 -3.8645891946e-09 3.00267077941e-17
17.5 0.00834541741933 -9.4927756302e-05 -3.47171945611e-09 4.79340342127e-17
17.6 0.00829967963217 -9.82785863012e-05 -2.98326118823e-09 9.53301212244e-17
17.7 0.00825210351744 -0.000100440959377 -2.41354185839e-09 1.42206214639e-17
17.8 0.00820341247893 -0.000101176720082 -1.77985404533e-09 8.55598696026e-17
17.9 0.00815444241348 -0.000100320041273 -1.10209761115e-09 -4.82272972557e-17
18 0.00810609663498 -9.77890360361e-05 -4.02290943127e-10 2.34272427448e-17
18.1 0.00805929526701 -9.35929092107e-05 2.96028381457e-10 1.6718124248e-16
18.2 0.00801492186053 -8.78340341521e-05 9.68502665407e-10 7.47165173242e-18
18.3 0.00797377064687 -8.0704766771e-05 1.59071854734e-09 -3.11283507893e-18
18.4 0.00793649813434 -7.2479076831e-05 2.13906852648e-09 -4.41450127692e-17
18.5 0.00790358227394 -6.34990607939e-05 2.59158240852e-09 3.37028916874e-17
18.6 0.00787529173524 -5.41566781156e-05 2.92878047398e-09 -6.19474414889e-17
18.7 0.00785166729005 -4.48715503347e-05 3.13446237911e-09 -4.30796384036e-17
18.8 0.00783251690359 -3.60663235049e-05 3.19637358144e-09 4.11314301569e-17
18.9 0.00781742500565 -2.81414204561e-05 3.10678655889e-09 -2.65927468361e-17
19 0.00780577508796 -2.14511919057e-05 2.86288363879e-09 2.50117940763e-17
19.1 0.00779678393807 -1.62833631647e-05 2.46696138991e-09 3.30946834462e-17
19.2 0.00778954496926 -1.28434231018e-05 1.92645252603e-09 -4.44435835446e-17
19.3 0.00778307815896 -1.12452194333e-05 1.25373671949e-09 9.90489583156e-17
19.4 0.00777638343535 -1.15081770562e-05 4.65796028716e-10 -1.15269030305e-16
19.5 0.00776849436788 -1.35603826804e-05 -4.16341235915e-10 1.72094578219e-17
19.6 0.00775852929149 -1.7245900188e-05 -1.36825455757e-09 -4.80246649901e-17
19.7 0.00774573723263 -2.23351126727e-05 -2.36295315724e-09 -1.46970593488e-17
19.8 0.00772953614116 -2.85378440098e-05 -3.37175847433e-09 5.90848068487e-17
19.9 0.00770954100319 -3.5519310481e-05 -4.36524890726e-09 -3.11601415963e-17
20 0.0076855796862 -4.29181894474e-05 -5.31422903075e-09 3.13709519198e-17
20.1 0.00765769547426 -5.03654520882e-05 -6.19068437564e-09 2.76508601776e-17
20.2 0.00762613654612 -5.75027657128e-05 -6.96870706996e-09 8.63034264171e-18
20.3 0.00759133396921 -6.40001605582e-05 -7.62534574468e-09 7.71353835868e-17
20.4 0.00755387024176 -6.95722565106e-05 -8.14136906628e-09 -1.54283859717e-17
20.5 0.00751444091236 -7.39918530019e-05 -8.50192157342e-09 8.55268707572e-17
20.6 0.00747381213372 -7.70995230277e-05 -8.69701321964e-09 -2.00907839004e-17
20.7 0.00743277703836 -7.88084638645e-05 -8.72188742295e-09 1.33185562415e-17
20.8 0.00739211356662 -7.91045700314e-05 -8.57720267472e-09 -1.95455184335e-18
20.9 0.00735254616556 -7.80420322778e-05 -8.26900331955e-09 3.86029761409e-17
21 0.00731471333451 -7.57350788729e-05 -7.80852641471e-09 -6.51004049176e-18
21.1 0.00727914241592 -7.23467127171e-05 -7.21176962816e-09 8.21908362428e-18
21.2 0.00724623257418 -6.80755423974e-05 -6.49891326105e-09 6.58533316732e-17
21.3 0.00721624653087 -6.31421777002e-05 -5.69349329101e-09 1.2561499258e-16
21.4 0.00718931089071 -5.77766829229e-05 -4.82147560821e-09 8.87923493973e-17
21.5 0.00716542376525 -5.22082706128e-05 -3.91017579446e-09 -2.50542175073e-17
21.6 0.00714446752258 -4.6657696753e-05 -2.98710467267e-09 -2.89730683601e-17
21.7 0.00712622411348 -4.13320646023e-05 -2.07876606087e-09 7.60485071942e-18
21.8 0.00711039103084 -3.64207890584e-05 -1.20953245445e-09 -1.35025974548e-16
21.9 0.00709659717502 -3.20911976174e-05 -4.00549090596e-10 2.57585274198e-17
22 0.00708441923184 -2.8483037841e-05 3.31150048928e-10 4.20761006524e-17
22.1 0.00707339966187 -2.57024390936e-05 9.73376980592e-10 2.46643532119e-17
22.2 0.00706306663221 -2.38166013843e-05 1.51921524971e-09 -2.99065467875e-17
22.3 0.00705295505134 -2.28503796661e-05 1.9672016584e-09 9.4617158563e-18
22.4 0.00704262706183 -2.27856877503e-05 2.32118094287e-09 -2.90530353722e-17
22.5 0.00703168999468 -2.35641576691e-05 2.58987456544e-09 7.41338183459e-17
22.6 0.00701980972895 -2.50924390132e-05 2.78617406495e-09 1.68716349341e-16
22.7 0.00700671832207 -2.72487896821e-05 2.92618766939e-09 1.16540429806e-16
22.8 0.00699221658239 -2.9889882267e-05 3.02815026169e-09 -6.55058085807e-17
22.9 0.0069761735422 -3.2857718829e-05 3.11117839706e-09 -3.81615310765e-19
23 0.00695852480365 -3.59869768382e-05 3.19402658179e-09 -9.3550608841e-17
23.1 0.00693927082986 -3.91128283297e-05 3.2938660532e-09 1.2198727341e-17
23.2 0.00691847489769 -4.20788809476e-05 3.42519032469e-09 -3.25911282106e-17
23.3 0.00689625948415 -4.47448505712e-05 3.59891082486e-09 9.5001326643e-17
23.4 0.00687279998565 -4.69936099225e-05 3.82166585397e-09 -7.42357104578e-17
23.5 0.00684831572475 -4.8737110278e-05 4.09540228543e-09 2.24947695212e-17
23.6 0.00682305914693 -4.99204742443e-05 4.41723840732e-09 1.48434590705e-17
23.7 0.00679730421731 -5.05234837353e-05 4.77961554086e-09 -2.07608829854e-17
23.8 0.00677133459253 -5.05590204585e-05 5.17072487066e-09 -1.37202470144e-16
23.9 0.00674543173208 -5.00688215755e-05 5.5751752244e-09 4.62221839044e-17
24 0.00671986287778 -4.91176621563e-05 5.97485319055e-09 -5.4572963288e-17
24.1 0.00669486885846 -4.77871897236e-05 6.34992957415e-09 -6.77479688232e-17
24.2 0.00667065217642 -4.61701212378e-05 6.67995527186e-09 -3.730646958e-17
24.3 0.00664736658952 -4.43650738239e-05 6.9449758191e-09 -5.6268408177e-17
24.4 0.00662510954317 -4.24715245475e-05 7.12661529064e-09 5.08872672874e-18
24.5 0.00660391895005 -4.05845909522e-05 7.20903975531e-09 1.02923171865e-16
24.6 0.00658377488749 -3.87893139954e-05 7.17980728926e-09 2.10036664095e-17
24.7 0.00656460602028 -3.71548875632e-05 7.03051369412e-09 -6.59710860854e-17
24.8 0.00654629947729 -3.57297911541e-05 6.75723539893e-09 -1.53047410243e-17
24.9 0.00652871249697 -3.4538614129e-05 6.36073175359e-09 2.33443818382e-17
25 0.00651168468853 -3.35806086466e-05 5.84642997026e-09 2.45265683986e-17
25.1 0.00649505051729 -3.28295302827e-05 5.22418712923e-09 4.99326690132e-17
25.2 0.006478651718 -3.22347263378e-05 4.50783420587e-09 -4.83295302201e-17
25.3 0.00646234889072 -3.17241593842e-05 3.71458657859e-09 -6.98204385288e-17
25.4 0.0064460314597 -3.12099820448e-05 2.86427136668e-09 1.87106444217e-17
25.5 0.00642962541532 -3.05969646309e-05 1.97855218269e-09 -1.84891629393e-17
25.6 0.00641309814746 -2.97930776595e-05 1.08003080703e-09 4.44816018748e-17
25.7 0.00639645950085 -2.87208390878e-05 1.91445014459e-10 -4.87229447291e-18
25.8 0.00637975843846 -2.732742202e-05 -6.65128462686e-10 -4.29103209951e-17
25.9 0.00636307542214 -2.55917444133e-05 -1.46894346931e-09 -6.97136493057e-19
26 0.00634651103727 -2.35276568826e-05 -2.2011535414e-09 2.24273966042e-17
